Pressure (mbar),Alt AM (km),Std Alt AM (km),Temp AM (K),Std Temp AM (K),Density AM (cm-3),Std Density AM (cm-3),VMR AM (1),Alt PM (km),Std Alt PM (km),Temp PM (K),Std Temp PM (K),Density PM (cm-3),Std Density PM (cm-3),VMR PM (1)
5.01E-08,,,,,,,,144.4,6.6,218.5,3,1.08E+09,2.03E+08,0.68
6.31E-08,147.3,1.4,161,8.8,1.62E+09,2.21E+08,0.62,143.6,6.4,221.6,1.9,1.38E+09,2.28E+08,0.693
7.94E-08,147.2,1.1,174.9,20.6,1.91E+09,3.24E+08,0.622,143,6.5,225.1,3.9,1.73E+09,2.43E+08,0.704
1.00E-07,146.8,1.7,187.4,17.1,2.30E+09,3.76E+08,0.63,142.4,6.5,229.1,5.9,2.17E+09,2.50E+08,0.713
1.26E-07,146.3,1.5,198.2,17.9,2.80E+09,4.31E+08,0.642,142,6.5,233.2,6.6,2.70E+09,2.74E+08,0.721
1.58E-07,145.5,2.2,207.7,26.8,3.45E+09,6.18E+08,0.658,141.5,6.9,235.9,7.8,3.40E+09,3.89E+08,0.729
2.00E-07,144.8,2.2,216.4,36.4,4.26E+09,8.99E+08,0.673,140.9,6.7,237.3,42.4,4.31E+09,1.21E+09,0.74
2.51E-07,144,1.9,223.6,34.7,5.31E+09,9.52E+08,0.687,140.3,6.4,237.7,40.5,5.46E+09,1.19E+09,0.749
3.16E-07,143,2.4,229.5,60.6,6.70E+09,2.09E+09,0.704,139.7,6.5,237.7,39.5,6.94E+09,1.13E+09,0.759
3.98E-07,141.8,2.5,231.4,56.8,8.59E+09,2.43E+09,0.724,139,5,235.6,32.5,8.89E+09,1.49E+09,0.768
5.01E-07,140.6,2.4,230.4,50.8,1.12E+10,2.90E+09,0.744,138.1,1.2,231,5.5,1.16E+10,2.12E+09,0.779
6.31E-07,139.4,2.3,225.4,50.3,1.48E+10,3.61E+09,0.763,137.2,4.4,223.3,32.4,1.55E+10,2.50E+09,0.791
7.94E-07,138.2,2.1,222,50.1,1.95E+10,4.25E+09,0.778,136.2,4.4,215.6,35.1,2.06E+10,3.63E+09,0.804
1.00E-06,137,2.2,215.2,50.6,2.60E+10,5.43E+09,0.794,135.2,4.3,206.1,43.5,2.76E+10,5.96E+09,0.817
1.26E-06,135.8,2.3,207.1,55.7,3.49E+10,7.67E+09,0.809,134.2,4.3,196.3,33.1,3.71E+10,7.64E+09,0.827
1.58E-06,134.6,2.3,197.7,52.1,4.70E+10,9.37E+09,0.823,133.2,4.5,185.9,35.7,5.03E+10,1.08E+10,0.837
2.00E-06,133.5,2.3,186.5,52.1,6.40E+10,1.25E+10,0.834,132.3,4.6,175,37.6,6.84E+10,1.64E+10,0.846
2.51E-06,132.4,2.3,175.2,49.5,8.70E+10,1.71E+10,0.844,131.3,4.6,164.4,38.7,9.29E+10,2.36E+10,0.855
3.16E-06,131.4,2.2,165,43.2,1.18E+11,2.35E+10,0.854,130.6,4.6,154.9,38.9,1.25E+11,3.54E+10,0.863
3.98E-06,130.5,2.2,156.4,34.7,1.58E+11,3.18E+10,0.863,129.8,4.6,146.9,38.1,1.67E+11,4.66E+10,0.87
5.01E-06,129.7,2.1,149.1,25.6,2.10E+11,3.91E+10,0.871,129.2,4.7,140.6,35.8,2.21E+11,5.73E+10,0.874
6.31E-06,128.8,2.1,142.4,22.1,2.79E+11,4.84E+10,0.877,128.5,4.8,135.1,32.9,2.91E+11,7.03E+10,0.879
7.94E-06,128.1,2,136.3,23.3,3.68E+11,7.06E+10,0.882,127.9,4.9,130.5,30.8,3.80E+11,8.53E+10,0.883
1.00E-05,127.4,1.9,130.8,25.4,4.84E+11,1.05E+11,0.887,127.2,5.1,127.2,29.5,4.93E+11,1.01E+11,0.888
1.26E-05,126.8,1.9,126.2,27.2,6.32E+11,1.51E+11,0.891,126.6,5.2,125.8,28.8,6.31E+11,1.17E+11,0.892
1.58E-05,126.1,1.8,123.6,29.3,8.16E+11,2.16E+11,0.896,126,5.4,125.9,28.3,8.00E+11,1.38E+11,0.897
2.00E-05,125.5,1.8,122.2,31.4,1.04E+12,3.09E+11,0.9,125.4,5.5,127,25.7,1.01E+12,1.57E+11,0.901
2.51E-05,124.9,1.8,121.3,33.5,1.33E+12,4.44E+11,0.904,124.9,5.7,129.1,23.6,1.25E+12,1.76E+11,0.904
3.16E-05,124.3,1.7,121.1,33.6,1.67E+12,6.18E+11,0.906,124.4,5.8,132.6,20.9,1.54E+12,1.83E+11,0.905
3.98E-05,123.6,1.8,121.5,30.9,2.10E+12,7.16E+11,0.908,123.9,6,137.1,18.4,1.89E+12,1.89E+11,0.907
5.01E-05,122.9,1.8,122.5,30,2.63E+12,8.24E+11,0.91,123.4,6.1,142.5,16.8,2.29E+12,2.02E+11,0.908
6.31E-05,122.2,1.8,124.4,27.6,3.27E+12,9.32E+11,0.912,122.9,6.2,148.2,17.1,2.78E+12,2.51E+11,0.91
7.94E-05,121.4,1.8,126.9,39.1,4.04E+12,1.16E+12,0.915,122.3,6.4,154.1,17.1,3.37E+12,3.06E+11,0.912
1.00E-04,120.6,2,130.2,27,4.97E+12,1.44E+12,0.917,121.7,6.6,158.7,17.6,4.13E+12,3.89E+11,0.914
1.26E-04,119.8,2.1,133.8,33.6,6.11E+12,1.67E+12,0.92,120.9,6.8,161.7,20.2,5.11E+12,5.29E+11,0.916
1.58E-04,119,2.1,137.3,32.3,7.51E+12,1.94E+12,0.922,120.1,6.9,165.1,24.1,6.31E+12,7.22E+11,0.919
2.00E-04,118.2,2.1,141,31,9.24E+12,2.22E+12,0.925,119.2,7,167.6,26,7.85E+12,9.65E+11,0.922
2.51E-04,117.4,2.2,144.5,29.3,1.14E+13,2.50E+12,0.928,118.3,6.7,168.9,30,9.85E+12,1.44E+12,0.925
3.16E-04,116.7,2.2,148.3,28.2,1.41E+13,2.84E+12,0.93,117.3,6.2,169,25.1,1.25E+13,1.61E+12,0.928
3.98E-04,116,2.2,152.1,30.1,1.75E+13,3.52E+12,0.933,116.2,5.6,167,22.5,1.60E+13,1.93E+12,0.932
5.01E-04,115.2,2.2,156.1,32.5,2.16E+13,4.40E+12,0.935,115.2,5.2,165.6,19.4,2.04E+13,2.23E+12,0.935
6.31E-04,114.5,2.3,160.7,33.6,2.65E+13,5.42E+12,0.937,114.2,4.8,164.1,15.5,2.60E+13,2.49E+12,0.938
7.94E-04,113.8,2.3,165.8,34.3,3.25E+13,6.60E+12,0.939,113.1,4.6,163.4,13.9,3.30E+13,2.88E+12,0.94
1.00E-03,113,2.4,170.9,34.7,3.99E+13,8.00E+12,0.941,112,4.4,163,12.6,4.17E+13,3.25E+12,0.943
1.26E-03,112.3,2.4,176.5,30.5,4.88E+13,8.40E+12,0.942,110.9,4.4,163.3,11.8,5.24E+13,3.71E+12,0.945
1.58E-03,111.5,2.3,182.1,27.9,5.97E+13,8.92E+12,0.944,109.8,4.1,164.2,10.7,6.56E+13,4.27E+12,0.948
2.00E-03,110.7,2.2,187.6,27.8,7.31E+13,1.04E+13,0.946,108.8,4.1,165.7,10.9,8.18E+13,5.86E+12,0.949
2.51E-03,109.8,2.2,193.3,26.8,8.93E+13,1.21E+13,0.948,107.8,4,167.6,13.2,1.02E+14,8.59E+12,0.951
3.16E-03,108.9,2.1,198.9,26.4,1.09E+14,1.43E+13,0.949,106.8,4.1,170.1,18.8,1.26E+14,1.42E+13,0.953
3.98E-03,108,2.1,204,22.8,1.34E+14,1.58E+13,0.951,105.8,4.1,173.2,24.6,1.55E+14,2.42E+13,0.954
5.01E-03,106.9,2,208.2,21,1.65E+14,1.81E+13,0.952,104.8,4.2,176.7,29.8,1.91E+14,3.84E+13,0.956
6.31E-03,105.9,1.9,211.5,20.7,2.05E+14,2.18E+13,0.954,104,4.3,179.3,34.1,2.37E+14,5.68E+13,0.956
7.94E-03,104.8,1.9,213.9,21.1,2.56E+14,2.74E+13,0.956,103.3,4.4,182.3,45.4,2.94E+14,8.71E+13,0.957
1.00E-02,103.7,1.8,215.5,21.6,3.20E+14,3.50E+13,0.957,102.6,4.3,186,64,3.64E+14,1.39E+14,0.958
1.26E-02,102.7,1.7,216.5,23.8,4.01E+14,4.74E+13,0.958,102.1,4.2,189,71.4,4.52E+14,1.90E+14,0.958
1.58E-02,101.5,1.6,216.6,25.1,5.05E+14,6.33E+13,0.959,101.7,4.2,192.5,66.9,5.61E+14,2.37E+14,0.959
2.00E-02,100.5,1.6,215.5,26.7,6.40E+14,8.56E+13,0.96,101.2,4.3,196.4,59,6.95E+14,2.78E+14,0.959
2.51E-02,99.4,1.4,212.7,27.2,8.17E+14,1.16E+14,0.96,100.5,5.3,200.5,30.5,8.60E+14,1.23E+14,0.96
3.16E-02,98.3,1.3,209.6,28.3,1.04E+15,1.55E+14,0.961,99.8,0.9,203.9,24.7,1.07E+15,1.35E+14,0.96
3.98E-02,97.2,1.3,206.3,29.7,1.34E+15,2.10E+14,0.961,99,0.8,206.7,22,1.33E+15,1.57E+14,0.96
5.01E-02,96.2,1.3,202.8,29.6,1.71E+15,2.67E+14,0.962,98.1,0.8,207.9,20.8,1.67E+15,1.85E+14,0.961
6.31E-02,95.3,1.3,198.6,26.1,2.20E+15,3.20E+14,0.962,97.3,0.3,210.2,17,2.08E+15,1.61E+14,0.961
7.94E-02,94.3,1.4,193.8,24.6,2.84E+15,3.91E+14,0.962,96.4,0.4,210.3,22.4,2.62E+15,2.68E+14,0.961
1.00E-01,93.4,1.6,189,26.8,3.66E+15,5.29E+14,0.963,95.2,0.5,211,19.3,3.30E+15,2.97E+14,0.962
1.26E-01,92.5,1.6,185.3,25,4.70E+15,6.67E+14,0.963,94,0.6,210.1,8.5,4.17E+15,1.77E+14,0.963
1.58E-01,91.6,1.6,182.9,25.3,6.00E+15,9.36E+14,0.964,92.8,0.6,208.2,10.3,5.30E+15,2.64E+14,0.963
2.00E-01,90.7,1.7,180.9,24.6,7.64E+15,1.25E+15,0.964,91.8,0.2,203.8,15.3,6.82E+15,5.10E+14,0.963
2.51E-01,89.8,1.7,181.1,30.2,9.61E+15,1.91E+15,0.964,,,,,,,
3.16E-01,88.8,0.6,182.3,16.5,1.20E+16,1.16E+15,0.965,,,,,,,
3.98E-01,87.9,0.7,185.2,17.1,1.49E+16,1.43E+15,0.965,,,,,,,
5.01E-01,86.9,0.8,189.4,18.2,1.84E+16,1.81E+15,0.965,,,,,,,
6.31E-01,85.9,0.8,195.7,19.2,2.25E+16,2.19E+15,0.965,,,,,,,
7.94E-01,84.9,0.9,203.1,22.2,2.73E+16,3.12E+15,0.965,,,,,,,
1.00E+00,83.9,1.3,210.9,21.1,3.32E+16,3.28E+15,0.965,,,,,,,
1.26E+00,82.8,1.5,219.9,20.7,4.00E+16,3.76E+15,0.965,,,,,,,
1.58E+00,81.7,1.6,229.4,18.4,4.82E+16,3.84E+15,0.965,,,,,,,
2.00E+00,80.7,1.8,238.8,15.9,5.83E+16,3.87E+15,0.965,,,,,,,
2.51E+00,79.7,1.9,247.5,15.9,7.08E+16,4.58E+15,0.965,,,,,,,